SpectraSuite Data File
++++++++++++++++++++++++++++++++++++
Date: Sat Dec 14 18:33:08 CET 2019
User: fiberoptics
Dark Spectrum Present: No
Reference Spectrum Present: No
Number of Sampled Component Spectra: 1
Spectrometers: QEPB0198
Integration Time (usec): 100000 (QEPB0198)
Spectra Averaged: 1 (QEPB0198)
Boxcar Smoothing: 0 (QEPB0198)
Correct for Electrical Dark: No (QEPB0198)
Strobe/Lamp Enabled: No (QEPB0198)
Correct for Detector Non-linearity: No (QEPB0198)
Correct for Stray Light: No (QEPB0198)
Number of Pixels in Processed Spectrum: 1044
>>>>>Begin Processed Spectral Data<<<<<
348.19	2536.00
348.97	2529.00
349.76	2529.00
350.55	2534.00
351.34	2527.00
352.12	2538.00
352.91	2532.00
353.70	2531.00
354.48	2529.00
355.27	2529.00
356.06	2537.00
356.84	2536.00
357.63	2539.00
358.42	2536.00
359.20	2543.00
359.99	2542.00
360.77	2535.00
361.56	2535.00
362.35	2536.00
363.13	2543.00
363.92	2538.00
364.70	2540.00
365.49	2539.00
366.28	2542.00
367.06	2542.00
367.85	2544.00
368.63	2538.00
369.42	2544.00
370.20	2547.00
370.99	2546.00
371.77	2546.00
372.56	2541.00
373.35	2545.00
374.13	2559.00
374.92	2550.00
375.70	2554.00
376.49	2551.00
377.27	2560.00
378.06	2559.00
378.84	2569.00
379.62	2565.00
380.41	2573.00
381.19	2574.00
381.98	2579.00
382.76	2582.00
383.55	2582.00
384.33	2587.00
385.12	2594.00
385.90	2604.00
386.68	2618.00
387.47	2611.00
388.25	2621.00
389.04	2631.00
389.82	2640.00
390.60	2646.00
391.39	2650.00
392.17	2656.00
392.95	2667.00
393.74	2687.00
394.52	2691.00
395.30	2708.00
396.09	2723.00
396.87	2739.00
397.65	2758.00
398.44	2774.00
399.22	2791.00
400.00	2821.00
400.79	2856.00
401.57	2892.00
402.35	2921.00
403.13	2972.00
403.92	3044.00
404.70	3110.00
405.48	3161.00
406.26	3251.00
407.05	3348.00
407.83	3457.00
408.61	3599.00
409.39	3730.00
410.18	3888.00
410.96	4060.00
411.74	4250.00
412.52	4477.00
413.30	4732.00
414.08	5035.00
414.87	5292.00
415.65	5612.00
416.43	5980.00
417.21	6374.00
417.99	6809.00
418.77	7261.00
419.56	7710.00
420.34	8231.00
421.12	8789.00
421.90	9387.00
422.68	9978.00
423.46	10613.00
424.24	11333.00
425.02	12009.00
425.80	12749.00
426.58	13478.00
427.36	14251.00
428.14	14981.00
428.93	15807.00
429.71	16626.00
430.49	17419.00
431.27	18210.00
432.05	19091.00
432.83	19747.00
433.61	20549.00
434.39	21344.00
435.17	22037.00
435.95	22726.00
436.73	23410.00
437.51	24121.00
438.29	24758.00
439.07	25391.00
439.85	25948.00
440.62	26579.00
441.40	27113.00
442.18	27753.00
442.96	28328.00
443.74	28811.00
444.52	29407.00
445.30	29834.00
446.08	30263.00
446.86	30599.00
447.64	30942.00
448.42	31125.00
449.19	31130.00
449.97	31117.00
450.75	30847.00
451.53	30527.00
452.31	30167.00
453.09	29543.00
453.87	28894.00
454.64	28104.00
455.42	27199.00
456.20	26317.00
456.98	25324.00
457.76	24366.00
458.53	23495.00
459.31	22512.00
460.09	21581.00
460.87	20772.00
461.65	19930.00
462.42	19145.00
463.20	18465.00
463.98	17796.00
464.76	17230.00
465.53	16659.00
466.31	16096.00
467.09	15583.00
467.86	15150.00
468.64	14708.00
469.42	14284.00
470.20	13909.00
470.97	13515.00
471.75	13139.00
472.53	12788.00
473.30	12473.00
474.08	12157.00
474.86	11850.00
475.63	11565.00
476.41	11354.00
477.18	11105.00
477.96	10906.00
478.74	10758.00
479.51	10596.00
480.29	10442.00
481.07	10373.00
481.84	10244.00
482.62	10226.00
483.39	10152.00
484.17	10145.00
484.94	10144.00
485.72	10165.00
486.50	10201.00
487.27	10253.00
488.05	10381.00
488.82	10443.00
489.60	10530.00
490.37	10686.00
491.15	10863.00
491.92	11025.00
492.70	11257.00
493.47	11477.00
494.25	11667.00
495.02	11915.00
495.80	12185.00
496.57	12491.00
497.35	12833.00
498.12	13162.00
498.89	13532.00
499.67	13897.00
500.44	14290.00
501.22	14708.00
501.99	15065.00
502.77	15536.00
503.54	15984.00
504.31	16472.00
505.09	16943.00
505.86	17369.00
506.63	17869.00
507.41	18336.00
508.18	18829.00
508.96	19273.00
509.73	19826.00
510.50	20308.00
511.28	20807.00
512.05	21333.00
512.82	21747.00
513.59	22256.00
514.37	22694.00
515.14	23161.00
515.91	23692.00
516.69	24107.00
517.46	24498.00
518.23	25002.00
519.00	25412.00
519.78	25778.00
520.55	26161.00
521.32	26636.00
522.09	27031.00
522.87	27509.00
523.64	27897.00
524.41	28277.00
525.18	28624.00
525.95	28967.00
526.73	29332.00
527.50	29675.00
528.27	29994.00
529.04	30359.00
529.81	30618.00
530.59	30841.00
531.36	31159.00
532.13	31438.00
532.90	31755.00
533.67	32009.00
534.44	32215.00
535.21	32433.00
535.98	32692.00
536.76	32975.00
537.53	33141.00
538.30	33391.00
539.07	33512.00
539.84	33709.00
540.61	33882.00
541.38	34096.00
542.15	34293.00
542.92	34454.00
543.69	34556.00
544.46	34706.00
545.23	34859.00
546.00	34933.00
546.77	35100.00
547.54	35183.00
548.31	35292.00
549.08	35400.00
549.85	35588.00
550.62	35603.00
551.39	35707.00
552.16	35820.00
552.93	35876.00
553.70	35951.00
554.47	36040.00
555.24	36052.00
556.01	36118.00
556.78	36054.00
557.55	36186.00
558.32	36153.00
559.09	36218.00
559.85	36223.00
560.62	36224.00
561.39	36256.00
562.16	36286.00
562.93	36331.00
563.70	36341.00
564.47	36286.00
565.23	36325.00
566.00	36244.00
566.77	36327.00
567.54	36379.00
568.31	36295.00
569.08	36281.00
569.84	36208.00
570.61	36168.00
571.38	36171.00
572.15	36041.00
572.92	36098.00
573.68	36090.00
574.45	35993.00
575.22	35999.00
575.99	35938.00
576.75	35877.00
577.52	35868.00
578.29	35845.00
579.05	35882.00
579.82	35899.00
580.59	35847.00
581.36	35942.00
582.12	35897.00
582.89	35962.00
583.66	36075.00
584.42	36254.00
585.19	36418.00
585.96	36593.00
586.72	36724.00
587.49	36949.00
588.26	37199.00
589.02	37399.00
589.79	37681.00
590.55	37905.00
591.32	38112.00
592.09	38328.00
592.85	38531.00
593.62	38780.00
594.38	39001.00
595.15	39147.00
595.91	39300.00
596.68	39441.00
597.45	39614.00
598.21	39708.00
598.98	39802.00
599.74	39940.00
600.51	40012.00
601.27	40143.00
602.04	40121.00
602.80	40111.00
603.57	40108.00
604.33	40035.00
605.10	39973.00
605.86	39929.00
606.63	39836.00
607.39	39743.00
608.15	39609.00
608.92	39433.00
609.68	39400.00
610.45	39197.00
611.21	38986.00
611.98	38902.00
612.74	38596.00
613.50	38411.00
614.27	38284.00
615.03	37921.00
615.80	37679.00
616.56	37404.00
617.32	37163.00
618.09	36877.00
618.85	36579.00
619.61	36228.00
620.38	35931.00
621.14	35626.00
621.90	35313.00
622.67	34929.00
623.43	34568.00
624.19	34243.00
624.96	33857.00
625.72	33596.00
626.48	33223.00
627.24	32856.00
628.01	32501.00
628.77	32187.00
629.53	31764.00
630.29	31482.00
631.06	31018.00
631.82	30771.00
632.58	30357.00
633.34	30061.00
634.10	29735.00
634.87	29378.00
635.63	28975.00
636.39	28685.00
637.15	28310.00
637.91	27982.00
638.68	27576.00
639.44	27356.00
640.20	26945.00
640.96	26577.00
641.72	26254.00
642.48	25938.00
643.24	25501.00
644.00	25185.00
644.77	24869.00
645.53	24564.00
646.29	24212.00
647.05	23864.00
647.81	23577.00
648.57	23186.00
649.33	22847.00
650.09	22597.00
650.85	22268.00
651.61	21978.00
652.37	21633.00
653.13	21332.00
653.89	20963.00
654.65	20702.00
655.41	20400.00
656.17	20069.00
656.93	19778.00
657.69	19462.00
658.45	19151.00
659.21	18864.00
659.97	18568.00
660.73	18179.00
661.49	17881.00
662.25	17527.00
663.01	17248.00
663.77	16977.00
664.53	16673.00
665.29	16330.00
666.05	16101.00
666.80	15815.00
667.56	15504.00
668.32	15181.00
669.08	14933.00
669.84	14643.00
670.60	14380.00
671.36	14151.00
672.11	13909.00
672.87	13638.00
673.63	13393.00
674.39	13197.00
675.15	13024.00
675.91	12809.00
676.66	12638.00
677.42	12466.00
678.18	12273.00
678.94	12155.00
679.69	12061.00
680.45	11893.00
681.21	11760.00
681.97	11679.00
682.73	11494.00
683.48	11370.00
684.24	11255.00
685.00	11174.00
685.75	11029.00
686.51	10897.00
687.27	10773.00
688.02	10667.00
688.78	10577.00
689.54	10454.00
690.30	10357.00
691.05	10232.00
691.81	10112.00
692.56	9995.00
693.32	9855.00
694.08	9761.00
694.83	9633.00
695.59	9529.00
696.35	9396.00
697.10	9271.00
697.86	9173.00
698.61	9070.00
699.37	8941.00
700.13	8835.00
700.88	8724.00
701.64	8561.00
702.39	8477.00
703.15	8355.00
703.90	8245.00
704.66	8143.00
705.41	8039.00
706.17	7949.00
706.92	7835.00
707.68	7713.00
708.43	7639.00
709.19	7530.00
709.94	7432.00
710.70	7316.00
711.45	7227.00
712.21	7147.00
712.96	7068.00
713.72	6966.00
714.47	6843.00
715.22	6788.00
715.98	6679.00
716.73	6588.00
717.49	6511.00
718.24	6419.00
718.99	6327.00
719.75	6245.00
720.50	6150.00
721.26	6069.00
722.01	5981.00
722.76	5896.00
723.52	5880.00
724.27	5812.00
725.02	5731.00
725.78	5657.00
726.53	5596.00
727.28	5525.00
728.03	5479.00
728.79	5423.00
729.54	5384.00
730.29	5311.00
731.05	5260.00
731.80	5213.00
732.55	5144.00
733.30	5120.00
734.06	5063.00
734.81	5016.00
735.56	4978.00
736.31	4912.00
737.06	4887.00
737.82	4800.00
738.57	4783.00
739.32	4738.00
740.07	4703.00
740.82	4645.00
741.58	4640.00
742.33	4588.00
743.08	4546.00
743.83	4502.00
744.58	4459.00
745.33	4421.00
746.08	4394.00
746.84	4341.00
747.59	4334.00
748.34	4282.00
749.09	4251.00
749.84	4208.00
750.59	4176.00
751.34	4153.00
752.09	4131.00
752.84	4075.00
753.59	4053.00
754.34	4031.00
755.09	3974.00
755.84	3951.00
756.59	3917.00
757.34	3892.00
758.09	3875.00
758.84	3840.00
759.59	3835.00
760.34	3797.00
761.09	3777.00
761.84	3759.00
762.59	3723.00
763.34	3710.00
764.09	3677.00
764.84	3665.00
765.59	3639.00
766.34	3607.00
767.09	3589.00
767.84	3572.00
768.58	3547.00
769.33	3539.00
770.08	3509.00
770.83	3500.00
771.58	3477.00
772.33	3465.00
773.08	3423.00
773.83	3421.00
774.57	3391.00
775.32	3399.00
776.07	3373.00
776.82	3353.00
777.57	3328.00
778.31	3311.00
779.06	3293.00
779.81	3280.00
780.56	3262.00
781.31	3242.00
782.05	3225.00
782.80	3217.00
783.55	3199.00
784.30	3186.00
785.04	3183.00
785.79	3163.00
786.54	3164.00
787.28	3139.00
788.03	3126.00
788.78	3120.00
789.52	3097.00
790.27	3083.00
791.02	3077.00
791.76	3067.00
792.51	3047.00
793.26	3034.00
794.00	3038.00
794.75	3020.00
795.50	3006.00
796.24	2997.00
796.99	2994.00
797.73	2973.00
798.48	2973.00
799.23	2958.00
799.97	2953.00
800.72	2932.00
801.46	2938.00
802.21	2919.00
802.95	2927.00
803.70	2901.00
804.45	2908.00
805.19	2896.00
805.94	2889.00
806.68	2877.00
807.43	2879.00
808.17	2850.00
808.92	2851.00
809.66	2847.00
810.40	2839.00
811.15	2837.00
811.89	2826.00
812.64	2826.00
813.38	2823.00
814.13	2816.00
814.87	2803.00
815.62	2807.00
816.36	2798.00
817.10	2780.00
817.85	2782.00
818.59	2774.00
819.34	2773.00
820.08	2763.00
820.82	2753.00
821.57	2749.00
822.31	2751.00
823.05	2754.00
823.80	2742.00
824.54	2738.00
825.28	2731.00
826.03	2729.00
826.77	2728.00
827.51	2713.00
828.25	2716.00
829.00	2713.00
829.74	2713.00
830.48	2702.00
831.23	2699.00
831.97	2692.00
832.71	2693.00
833.45	2686.00
834.19	2682.00
834.94	2683.00
835.68	2681.00
836.42	2679.00
837.16	2671.00
837.90	2666.00
838.65	2673.00
839.39	2665.00
840.13	2662.00
840.87	2662.00
841.61	2653.00
842.35	2657.00
843.10	2644.00
843.84	2645.00
844.58	2651.00
845.32	2647.00
846.06	2637.00
846.80	2641.00
847.54	2635.00
848.28	2635.00
849.02	2634.00
849.76	2628.00
850.50	2626.00
851.24	2630.00
851.99	2619.00
852.73	2623.00
853.47	2617.00
854.21	2614.00
854.95	2613.00
855.69	2613.00
856.43	2611.00
857.17	2607.00
857.91	2609.00
858.64	2602.00
859.38	2594.00
860.12	2601.00
860.86	2607.00
861.60	2594.00
862.34	2590.00
863.08	2589.00
863.82	2591.00
864.56	2590.00
865.30	2595.00
866.04	2600.00
866.78	2587.00
867.52	2585.00
868.25	2587.00
868.99	2579.00
869.73	2581.00
870.47	2577.00
871.21	2581.00
871.95	2572.00
872.68	2590.00
873.42	2577.00
874.16	2575.00
874.90	2571.00
875.64	2574.00
876.37	2578.00
877.11	2568.00
877.85	2569.00
878.59	2567.00
879.32	2567.00
880.06	2563.00
880.80	2566.00
881.54	2567.00
882.27	2563.00
883.01	2561.00
883.75	2567.00
884.48	2567.00
885.22	2561.00
885.96	2564.00
886.70	2557.00
887.43	2559.00
888.17	2561.00
888.90	2554.00
889.64	2557.00
890.38	2556.00
891.11	2560.00
891.85	2559.00
892.59	2553.00
893.32	2560.00
894.06	2555.00
894.79	2553.00
895.53	2554.00
896.27	2551.00
897.00	2554.00
897.74	2551.00
898.47	2553.00
899.21	2556.00
899.94	2547.00
900.68	2549.00
901.41	2546.00
902.15	2551.00
902.88	2546.00
903.62	2543.00
904.35	2542.00
905.09	2566.00
905.82	2546.00
906.56	2552.00
907.29	2546.00
908.03	2538.00
908.76	2537.00
909.49	2542.00
910.23	2534.00
910.96	2543.00
911.70	2547.00
912.43	2536.00
913.16	2540.00
913.90	2536.00
914.63	2545.00
915.37	2537.00
916.10	2541.00
916.83	2539.00
917.57	2535.00
918.30	2534.00
919.03	2541.00
919.77	2540.00
920.50	2542.00
921.23	2541.00
921.97	2536.00
922.70	2537.00
923.43	2543.00
924.16	2538.00
924.90	2532.00
925.63	2534.00
926.36	2535.00
927.09	2542.00
927.83	2531.00
928.56	2539.00
929.29	2532.00
930.02	2546.00
930.75	2537.00
931.49	2539.00
932.22	2536.00
932.95	2540.00
933.68	2532.00
934.41	2534.00
935.14	2528.00
935.88	2535.00
936.61	2532.00
937.34	2537.00
938.07	2538.00
938.80	2535.00
939.53	2532.00
940.26	2534.00
940.99	2537.00
941.72	2536.00
942.46	2532.00
943.19	2531.00
943.92	2534.00
944.65	2530.00
945.38	2536.00
946.11	2530.00
946.84	2533.00
947.57	2541.00
948.30	2533.00
949.03	2524.00
949.76	2532.00
950.49	2531.00
951.22	2533.00
951.95	2532.00
952.68	2527.00
953.41	2530.00
954.14	2534.00
954.86	2524.00
955.59	2528.00
956.32	2538.00
957.05	2526.00
957.78	2530.00
958.51	2532.00
959.24	2530.00
959.97	2531.00
960.70	2527.00
961.43	2525.00
962.15	2529.00
962.88	2527.00
963.61	2533.00
964.34	2530.00
965.07	2529.00
965.80	2526.00
966.52	2526.00
967.25	2527.00
967.98	2533.00
968.71	2522.00
969.43	2526.00
970.16	2524.00
970.89	2524.00
971.62	2524.00
972.34	2521.00
973.07	2521.00
973.80	2522.00
974.53	2522.00
975.25	2529.00
975.98	2525.00
976.71	2519.00
977.43	2519.00
978.16	2521.00
978.89	2518.00
979.61	2521.00
980.34	2520.00
981.07	2524.00
981.79	2522.00
982.52	2521.00
983.25	2523.00
983.97	2519.00
984.70	2518.00
985.42	2529.00
986.15	2516.00
986.88	2522.00
987.60	2517.00
988.33	2520.00
989.05	2519.00
989.78	2519.00
990.50	2522.00
991.23	2524.00
991.95	2527.00
992.68	2520.00
993.40	2524.00
994.13	2527.00
994.85	2520.00
995.58	2527.00
996.30	2518.00
997.03	2519.00
997.75	2527.00
998.48	2525.00
999.20	2528.00
999.93	2524.00
1000.65	2520.00
1001.38	2518.00
1002.10	2517.00
1002.82	2516.00
1003.55	2519.00
1004.27	2518.00
1004.99	2524.00
1005.72	2524.00
1006.44	2519.00
1007.17	2523.00
1007.89	2524.00
1008.61	2523.00
1009.34	2521.00
1010.06	2525.00
1010.78	2519.00
1011.51	2516.00
1012.23	2528.00
1012.95	2519.00
1013.67	2522.00
1014.40	2521.00
1015.12	2521.00
1015.84	2528.00
1016.56	2522.00
1017.29	2523.00
1018.01	2523.00
1018.73	2526.00
1019.45	2519.00
1020.18	2518.00
1020.90	2524.00
1021.62	2517.00
1022.34	2527.00
1023.06	2528.00
1023.78	2537.00
1024.51	2523.00
1025.23	2522.00
1025.95	2525.00
1026.67	2527.00
1027.39	2525.00
1028.11	2524.00
1028.83	2523.00
1029.55	2522.00
1030.28	2526.00
1031.00	2519.00
1031.72	2527.00
1032.44	2526.00
1033.16	2521.00
1033.88	2529.00
1034.60	2532.00
1035.32	2525.00
1036.04	2533.00
1036.76	2525.00
1037.48	2525.00
1038.20	2522.00
1038.92	2527.00
1039.64	2532.00
1040.36	2521.00
1041.08	2528.00
1041.80	2527.00
1042.52	2521.00
1043.24	2524.00
1043.96	2527.00
1044.68	2529.00
1045.40	2531.00
1046.11	2532.00
1046.83	2523.00
1047.55	2529.00
1048.27	2525.00
1048.99	2531.00
1049.71	2530.00
1050.43	2537.00
1051.15	2522.00
1051.86	2540.00
1052.58	2528.00
1053.30	2531.00
1054.02	2529.00
1054.74	2538.00
1055.45	2538.00
1056.17	2534.00
1056.89	2525.00
1057.61	2533.00
1058.33	2533.00
1059.04	2540.00
1059.76	2528.00
1060.48	2524.00
1061.20	2531.00
1061.91	2533.00
1062.63	2525.00
1063.35	2528.00
1064.06	2529.00
1064.78	2536.00
1065.50	2531.00
1066.22	2532.00
1066.93	2528.00
1067.65	2532.00
1068.36	2532.00
1069.08	2532.00
1069.80	2534.00
1070.51	2535.00
1071.23	2536.00
1071.95	2542.00
1072.66	2538.00
1073.38	2541.00
1074.09	2540.00
1074.81	2538.00
1075.53	2546.00
1076.24	2542.00
1076.96	2545.00
1077.67	2550.00
1078.39	2550.00
1079.10	2545.00
1079.82	2552.00
1080.53	2549.00
1081.25	2549.00
1081.96	2557.00
1082.68	2550.00
1083.39	2552.00
1084.11	2550.00
1084.82	2547.00
1085.54	2558.00
1086.25	2557.00
1086.97	2559.00
1087.68	2563.00
1088.39	2556.00
1089.11	2569.00
1089.82	2561.00
1090.54	2575.00
1091.25	2566.00
1091.96	2569.00
1092.68	2574.00
1093.39	2570.00
1094.10	2571.00
1094.82	2573.00
1095.53	2568.00
1096.24	2574.00
1096.96	2572.00
1097.67	2572.00
1098.38	2565.00
1099.10	2568.00
1099.81	2572.00
1100.52	2577.00
1101.23	2571.00
1101.95	2581.00
1102.66	2567.00
1103.37	2564.00
1104.08	2572.00
1104.80	2569.00
1105.51	2567.00
1106.22	2575.00
1106.93	2567.00
1107.64	2565.00
1108.36	2582.00
1109.07	2569.00
1109.78	2565.00
1110.49	2561.00
1111.20	2568.00
1111.91	2573.00
1112.63	2570.00
1113.34	2567.00
1114.05	2566.00
1114.76	2565.00
1115.47	2567.00
1116.18	2571.00
1116.89	2476.00
1117.60	2476.00
1118.31	2474.00
1119.02	2475.00
1119.73	2531.00
1120.44	2530.00
1121.16	2529.00
1121.87	2531.00
1122.58	2530.00
1123.29	2530.00
1124.00	2559.00
1124.71	2567.00
1125.42	2574.00
1126.12	2579.00
1126.83	2567.00
1127.54	2567.00
1128.25	2474.00
1128.96	2482.00
1129.67	2483.00
1130.38	2494.00